[[3.33713919e-01 1.71005353e-01 1.35679901e-01 5.78133345e-01
  5.06393492e-01 4.40277398e-01 1.37840271e+00 3.15701461e+00
  5.15999556e+00 2.11940622e+00 8.00216973e-01 1.93367445e+00
  4.59869814e+00 3.80111790e+00 7.10217506e-02 2.91410446e+00
  8.98446813e-02 0.00000000e+00 4.33370304e+00 6.21572828e+00
  1.38363466e-01 1.20598307e+01 5.76439679e-01 3.84658647e+00
  0.00000000e+00 8.19040394e+00 2.14893532e+00 1.61687404e-01
  7.13551641e-02 0.00000000e+00 4.87655669e-01 4.80336428e-01
  1.64195299e+00 1.76134193e+00 6.43146336e-01 6.18166476e-02
  1.25524476e-01 1.29139230e-01 3.85398126e+00 2.30733603e-01
  1.82676029e+01 0.00000000e+00 1.30409479e+00 6.46732569e+00
  6.19691849e-01 0.00000000e+00 4.36853886e+00 6.36642456e+00
  5.05378103e+00 1.77926695e+00 1.06499648e+00 2.43396163e+00
  2.61588573e-01 6.07777238e-01 2.55528593e+00 4.55549812e+00
  1.55779433e+00 3.85748696e+00 3.11962557e+00 0.00000000e+00
  2.59018278e+00 1.19515121e-01 1.50619042e+00 7.35748863e+00
  3.86381060e-01 2.93961668e+00 3.47451854e+00 2.01981926e+00
  3.02640527e-01 4.06004906e+00 2.53898191e+00 8.97707820e-01
  3.51322150e+00 6.93752623e+00 1.16207016e+00 8.59911680e-01
  4.89496857e-01 6.05227280e+00 8.82323086e-03 5.55765581e+00
  3.32656264e+00 2.62405205e+00 2.79195142e+00 1.27326310e-01
  3.31445789e+00 1.92662299e-01 2.61295140e-02 4.70954323e+00
  5.86400795e+00 4.86366320e+00 1.04847431e+00 9.21452522e+00
  3.90751183e-01 2.47134304e+00 4.98848259e-01 7.79909492e-02
  1.20382018e-01 4.74715137e+00 7.12202132e-01 6.73444843e+00
  1.23517895e+00 8.72878850e-01 1.60324597e+00 6.06800461e+00
  6.71513975e-02 3.28310937e-01 3.97642225e-01 0.00000000e+00
  9.97990370e-01 8.22044075e-01 4.34599829e+00 2.84202242e+00
  1.08655310e+00 0.00000000e+00 1.83469903e+00 1.92968637e-01
  4.32829666e+00 4.51937139e-01 2.45784402e+00 8.31672490e-01
  0.00000000e+00 5.19628572e+00 1.90183427e-02 9.53061581e+00
  4.17661476e+00 2.91179085e+00 2.12972546e+00 0.00000000e+00
  6.93613672e+00 1.38277340e+01 6.76074505e-01 0.00000000e+00
  9.54122448e+00 5.06966233e-01 1.69242215e+00 3.11874390e+00
  5.90452671e-01 1.93302858e+00 5.48248231e-01 8.01276016e+00
  2.35819325e-01 5.33312261e-01 1.02370135e-01 1.39412999e+00
  3.11131060e-01 1.30811417e+00 1.09013605e+00 1.21818304e+00
  1.19405043e+00 1.57351680e-02 7.10291815e+00 8.87418538e-02
  2.50758004e+00 0.00000000e+00 8.22982967e-01 0.00000000e+00
  4.19025993e+00 1.24142580e-01 1.61358878e-01 2.18908906e+00
  0.00000000e+00 7.11253929e+00 5.00799608e+00 5.41491747e-01
  1.81597245e+00 2.52802372e+00 8.84189785e-01 2.64392996e+00
  4.36740555e-02 8.79883021e-02 2.69171715e+00 0.00000000e+00
  6.62201881e+00 1.54417229e+00 9.70126130e-03 1.25172287e-01
  0.00000000e+00 2.08809271e-01 5.28415918e+00 6.84440851e+00
  2.86594939e+00 1.47932720e+00 3.04891896e+00 3.80542397e-01
  2.52548242e+00 1.22735023e+00 3.02613425e+00 3.63703012e+00
  9.09046471e-01 1.15805817e+00 7.14924955e+00 4.67556208e-01
  4.18325329e+00 1.28128824e+01 0.00000000e+00 2.05429864e+00
  1.91502020e-01 3.21804833e+00 4.23997116e+00 0.00000000e+00
  5.43801427e-01 0.00000000e+00 1.98433387e+00 4.16052580e+00
  4.73214674e+00 6.31072342e-01 4.06594181e+00 5.31402540e+00
  2.93122590e-01 1.06418839e+01 5.48563433e+00 6.10321665e+00
  0.00000000e+00 2.11679101e+00 1.62010098e+00 1.87854981e+00
  3.73068333e-01 1.04593458e+01 2.29347301e+00 1.61333001e+00
  0.00000000e+00 1.35772991e+01 1.55437422e+00 2.11383796e+00
  1.61869943e-01 7.63212383e-01 8.61571491e-01 1.03972423e+00
  1.46268141e-02 2.93962979e+00 1.21447313e+00 6.14359319e-01
  2.31921816e+00 0.00000000e+00 3.07991147e+00 2.46563601e+00
  9.23613250e-01 1.71996155e+01 5.74957848e-01 5.37297606e-01
  8.58611465e-02 6.71695232e-01 6.25593901e-01 7.65371943e+00
  3.33395457e+00 1.12435741e+01 1.18163691e+01 1.53365016e+00
  2.78044844e+00 5.20093727e+00 1.16724598e+00 1.53162026e+00
  7.85061598e+00 9.80204105e+00 7.67183828e+00 8.05626512e-01
  6.03650212e-01 0.00000000e+00 8.17852497e+00 4.26447296e+00
  0.00000000e+00 1.74395442e+00 1.31075412e-01 3.55139589e+00
  3.45039344e+00 5.42229748e+00 0.00000000e+00 1.64754605e+00
  6.24222851e+00 0.00000000e+00 3.95627570e+00 0.00000000e+00
  1.99780571e+00 1.00743637e+01 5.31556129e-01 2.28334165e+00
  5.55424213e+00 0.00000000e+00 0.00000000e+00 4.25841236e+00
  6.09281778e+00 7.83998966e-01 1.74309597e+01 6.86903059e-01
  1.38421011e+00 0.00000000e+00 2.83359337e+00 0.00000000e+00
  2.52093458e+00 5.82049894e+00 1.15758657e+00 1.17786324e+00
  2.39330482e+00 3.41828322e+00 4.28829002e+00 2.01095253e-01
  1.17773628e+00 0.00000000e+00 0.00000000e+00 0.00000000e+00
  1.04730392e+00 2.12852812e+00 2.82045865e+00 0.00000000e+00
  1.39926624e+00 5.50001431e+00 0.00000000e+00 2.37623119e+00
  6.60255730e-01 2.35129595e+00 0.00000000e+00 2.04247355e+00
  1.10520828e+00 1.41188037e+00 5.89774942e+00 3.49355966e-01
  2.75667816e-01 1.44860811e+01 1.01006603e+00 1.81514144e+00
  0.00000000e+00 8.88102800e-02 3.50658655e+00 7.02921003e-02
  1.59437501e+00 4.13573360e+00 1.26266527e+01 1.16549218e-02
  7.05516040e-01 0.00000000e+00 8.52933586e-01 1.59467769e+00
  6.63996410e+00 2.97712874e+00 5.63199663e+00 3.79937220e+00
  1.76599294e-01 8.60464573e+00 3.30018830e+00 3.75634241e+00
  7.65191689e-02 0.00000000e+00 1.28227103e+00 5.71979094e+00
  1.43016601e+00 2.06434950e-01 4.90486860e-01 2.56236172e+00
  1.17633629e+00 0.00000000e+00 1.50003910e-01 1.71120644e+00
  3.36223394e-01 6.08348213e-02 3.67643619e+00 2.82960802e-01
  1.11880529e+00 1.17501640e+01 2.81517053e+00 4.76622134e-01
  3.90194321e+00 3.59596089e-02 4.35257816e+00 2.29731774e+00
  4.99862194e+00 1.29996860e+00 1.49993458e+01 0.00000000e+00
  2.51681030e-01 7.16479495e-02 6.39148712e-01 7.61817515e-01
  6.31401205e+00 9.43458736e-01 4.23972875e-01 1.12135124e+00
  1.01038003e+00 6.48880243e+00 6.30156040e+00 4.63112926e+00
  3.68999815e+00 3.18065095e+00 7.66593635e-01 1.59279749e-01
  2.99401951e+00 3.11829495e+00 2.49065447e+00 3.48788738e-01
  2.67618322e+00 1.82319391e+00 1.74650204e+00 2.87335849e+00
  4.97960776e-01 6.01252675e-01 4.38570070e+00 2.63990140e+00
  8.51497114e-01 2.31422734e+00 3.72727251e+00 1.37928808e+00
  5.45274854e-01 1.27151451e+01 0.00000000e+00 2.28336692e+00
  8.58301258e+00 3.58151466e-01 7.12535977e-02 1.63290715e+00
  0.00000000e+00 2.55705905e+00 3.39896917e+00 1.57273293e+00
  6.59197211e-01 4.12055552e-01 7.08142519e-01 0.00000000e+00
  9.46756542e-01 1.81624365e+00 0.00000000e+00 1.78994942e+00
  4.74584371e-01 6.08545363e-01 3.60208273e-01 5.11093616e+00
  2.00308132e+00 0.00000000e+00 4.48079491e+00 3.82774282e+00
  2.78758860e+00 5.40735006e+00 3.54697657e+00 6.67423487e+00
  1.93503189e+01 1.53419292e+00 1.96514979e-01 2.43349028e+00
  2.05478430e-01 3.76715326e+00 7.52115130e-01 1.67209220e+00
  3.30655575e-01 8.23866844e-01 8.24223757e-01 1.75130405e+01
  8.68991911e-02 4.90222514e-01 1.38046479e+00 2.75175381e+00
  0.00000000e+00 6.06837153e-01 5.77034521e+00 4.10007477e+00
  4.47803068e+00 4.34963036e+00 3.51507604e-01 5.55051625e-01
  6.12234640e+00 1.25688004e+00 5.07378340e+00 4.44024324e+00
  6.02546453e+00 1.63433373e-01 0.00000000e+00 0.00000000e+00
  1.00702956e-01 3.29529583e-01 0.00000000e+00 6.38996542e-01
  8.93545032e-01 2.37794256e+00 4.76541710e+00 3.08062768e+00
  8.47154856e-02 6.81234360e+00 6.62311792e+00 3.29956204e-01
  0.00000000e+00 0.00000000e+00 4.70558167e+00 9.01032257e+00
  6.86629951e-01 1.22430730e+00 6.11616552e-01 4.45432138e+00
  5.49842238e-01 0.00000000e+00 1.45419216e+00 0.00000000e+00
  4.44519186e+00 2.98578262e+00 1.55386829e+00 1.15325606e+00
  1.44757950e+00 7.39571214e-01 0.00000000e+00 1.60552764e+00
  3.04735374e+00 1.12128286e+01 2.54364133e-01 9.64581743e-02
  1.41568565e+01 9.54130530e-01 4.76944894e-01 1.44841325e+00
  4.16166925e+00 2.57309198e+00 1.49966850e+01 2.73653483e+00
  1.08926427e+00 6.86471641e-01 1.26590025e+00 2.71765232e+00]]